-13.330542	7682
-11.465536	7682
-9.6030588	8027
-7.7387924	8408
-5.8770528	8649
-4.013525	8013
-2.1525233	6845
-0.28973404	33602
1.5705307	64635
3.4325821	64635
5.29211	64635
7.1512699	42848
9.0122156	12998
10.870639	10865
12.730848	10095
14.588536	9445
16.445856	9033
18.304962	8589
20.161547	8284
22.019917	7905
23.875767	7516
25.731251	7275
27.588518	6892
29.443268	6737
31.297651	6585
33.153816	6349
35.007465	6014
36.860752	5898
38.715816	5791
40.568367	5493
42.420551	5320
44.272369	5249
46.125969	5113
47.977058	4942
49.827782	4630
51.680283	4515
53.530273	4422
55.379898	4342
57.22916	4064
59.080196	3886
60.928726	3769
62.776894	3608
64.624695	3423
66.474274	3312
68.321342	3250
70.168053	3063
72.014397	2899
73.860374	2789
75.70813	2598
77.553375	2608
79.398262	2506
81.24279	2431
83.086945	2271
84.93074	2156
86.776314	2169
88.619385	1974
90.46209	1991
92.304428	1946
94.146408	1800
95.988029	1749
97.829285	1709
99.670174	1609
101.51284	1555
103.353	1557
105.19281	1475
107.03225	1396
108.87133	1366
110.71005	1353
112.54841	1248
114.3864	1228
116.22404	1137
118.0613	1105
119.89822	1047
121.73476	964
123.57095	977
125.40678	987
127.24224	901
129.07735	872
130.91209	855
132.74648	838
134.58049	797
136.41415	801
138.24747	756
140.0804	758
141.91298	719
143.74521	699
145.57707	737
147.40857	710
149.23972	656
151.0705	610
152.90091	602
154.73097	643
156.56068	600
158.39003	625
160.21689	589
162.04552	576
163.87379	558
165.70169	562
167.52925	560
169.35645	560
171.18327	542
173.00975	583
174.83376	548
176.65952	542
178.48491	547
180.30995	546
182.13464	508
183.95897	522
185.78082	537
187.60443	483
189.42769	531
191.2506	479
193.07314	495
194.8932	499
196.71503	499
198.5365	516
200.35762	472
202.17627	481
203.99667	450
205.81671	463
207.6364	463
209.45363	486
211.2726	487
213.09122	483
214.90738	428
216.72528	434
218.54283	422
220.36003	452
222.17477	471
223.99126	484
225.80739	481
227.62106	427
229.43649	466
231.25156	436
233.06416	427
234.87852	441
236.69252	480
238.50407	433
240.31737	452
242.1282	422
243.9408	439
245.75302	433
247.56281	432
249.37433	429
251.1834	440
252.99422	407
254.80258	453
256.6127	411
258.42245	500
260.22974	435
262.03879	456
263.8454	482
265.65375	504
267.45966	437
269.26727	470
271.07248	431
272.87943	445
274.6839	461
276.49014	449
278.29391	459
280.09946	440
281.90253	407
283.70734	460
285.50974	423
287.31384	484
289.11551	439
290.91684	419
292.71991	438
294.52054	435
296.32291	415
298.12283	434
299.9245	481
301.72372	438
303.52258	415
305.32318	426
307.12137	416
308.91919	444
310.71875	436
312.51587	436
314.31473	437
316.11115	437
317.90723	424
319.70505	408
321.5004	419
323.29544	429
325.09219	418
326.88654	415
328.68051	425
330.47415	400
332.2695	385
334.06244	393
335.85501	403
337.64935	380
339.44122	416
341.23279	381
343.02396	417
344.81689	389
346.60739	415
348.39755	391
350.18735	388
351.97681	400
353.76797	400
355.55676	415
357.34515	348
359.13324	342
360.92096	392
362.71039	337
364.49744	348
366.28412	340
368.07043	347
369.85645	350
371.64209	391
373.42737	367
375.21439	358
376.99899	328
378.78326	334
380.56717	321
382.35074	346
384.13394	371
385.91684	401
387.69937	349
389.48154	346
391.2634	325
393.04489	360
394.82809	336
396.60889	372
398.38937	379
400.16946	345
401.94925	345
403.72867	343
405.50775	380
407.2865	329
409.06488	338
410.84293	341
412.62064	345
414.39801	352
416.17502	373
417.95169	398
419.72803	464
421.50403	531
423.27762	532
425.05292	421
426.82788	392
428.60248	367
430.37677	371
432.1507	366
433.92429	370
435.69751	376
437.47043	376
439.24298	346
441.0152	339
442.78503	371
444.55655	336
446.32776	387
448.0986	347
449.86911	391
451.63928	397
453.40909	381
455.17651	408
456.94568	399
458.71448	366
460.48294	398
462.25104	389
464.01678	355
465.78421	382
467.5513	411
469.31805	364
471.08243	346
472.84851	348
474.61423	377
476.37964	321
478.14264	327
479.90735	349
481.67172	333
483.43576	342
485.19742	355
486.96075	343
488.72379	334
490.48441	335
492.24677	360
494.00876	342
495.76837	323
497.52969	308
499.29065	360
501.04926	303
502.80957	329
504.56952	325
506.32712	293
508.0864	354
509.84534	290
511.60193	322
513.36017	321
515.11609	347
516.87366	318
518.62891	310
520.3858	316
522.1424	298
523.89661	344
525.65253	316
527.40607	314
529.16132	292
530.91418	306
532.6687	296
534.4209	330
536.1748	293
537.92633	314
539.6795	308
541.43036	312
543.18292	297
544.93304	317
546.68494	298
548.43445	296
550.18561	323
551.93445	298
553.685	330
555.43317	291
557.18097	318
558.93048	306
560.67761	280
562.42645	288
564.17297	300
565.91913	309
567.66693	312
569.41241	300
571.15961	297
572.90442	285
574.64886	274
576.39508	283
578.13885	317
579.88232	338
581.6275	335
583.3703	376
585.11279	286
586.85693	295
588.59875	261
590.34021	282
592.08136	276
593.82416	267
595.56464	282
597.30481	275
599.04663	279
600.78607	281
602.52521	254
604.26404	294
606.00452	287
607.74268	306
609.48047	278
611.21796	307
612.95514	298
614.69397	275
616.43042	280
618.16656	300
619.9024	292
621.63788	267
623.37305	280
625.10986	301
626.84436	302
628.57855	304
630.31238	286
632.0459	275
633.77905	307
635.5119	341
637.24438	310
638.97858	306
640.71045	291
642.44196	254
644.17316	330
645.90399	291
647.63452	299
649.36469	319
651.09454	294
652.8241	315
654.55334	283
656.28217	340
658.01074	297
659.73895	315
661.46686	305
663.1944	284
664.92163	293
666.64856	302
668.37512	282
670.10138	324
671.82727	318
673.55286	309
675.27814	336
677.00305	276
678.72766	272
680.4519	303
682.17584	303
683.89948	297
685.62073	298
687.34369	319
689.06635	280
690.78864	333
692.51062	320
694.2323	316
695.95361	297
697.67456	303
699.39325	305
701.11359	282
702.83362	275
704.55328	327
706.27264	312
707.9917	305
709.70837	294
711.42676	326
713.14484	334
714.86255	328
716.57996	319
718.29504	335
720.01178	299
721.72821	313
723.44427	334
725.15808	319
726.87354	328
728.58862	322
730.30145	329
732.01593	280
733.73004	352
735.44385	339
737.1554	346
738.86853	390
740.58136	398
742.29193	456
744.00409	380
745.71594	441
747.42554	452
749.13672	487
750.84564	439
752.55621	490
754.26648	517
755.97443	539
757.68402	503
759.39325	476
761.10022	457
762.8089	453
764.5152	446
766.22314	424
767.92883	426
769.63617	480
771.34119	434
773.04791	443
774.75427	425
776.45831	473
778.164	372
779.86743	430
781.57251	410
783.27527	412
784.97974	412
786.68182	369
788.38562	388
790.0871	448
791.78827	471
793.49109	411
795.19159	380
796.89374	466
798.59363	404
800.29517	440
801.99438	439
803.6933	470
805.39386	495
807.09216	515
808.79205	579
810.48969	610
812.18701	640
813.88599	619
815.58264	582
817.27899	546
818.97699	568
820.67267	538
822.36804	576
824.06512	588
825.75983	603
827.45428	600
829.15033	591
830.84412	602
832.5376	620
834.23077	637
835.92554	647
837.61804	690
839.31024	700
841.00214	716
842.69562	765
844.38684	790
846.07776	785
847.76837	728
849.46063	749
851.15057	662
852.84021	677
854.52954	578
856.21857	573
857.90723	565
859.59753	593
861.28558	551
862.97333	572
864.66077	563
866.34784	561
868.03461	495
869.72107	564
871.40918	543
873.09503	551
874.78052	543
876.46576	527
878.15063	555
879.83514	571
881.51941	605
883.20331	591
884.88696	542
886.57025	587
888.25323	567
889.93585	624
891.61823	535
893.30023	580
894.98193	618
896.66333	606
898.34442	634
900.02521	601
901.70563	609
903.3858	584
905.06561	597
906.74512	696
908.42426	633
910.10315	638
911.78174	639
913.45996	622
915.13788	598
916.81549	612
918.4928	606
920.16779	562
921.84448	581
923.52081	576
925.1969	601
926.87262	604
928.54803	600
930.22308	554
931.89594	615
933.57037	607
935.24457	596
936.9184	620
938.59192	618
940.26514	598
941.9361	585
943.6087	604
945.28094	574
946.95288	601
948.62262	648
950.29395	603
951.96497	616
953.63568	620
955.30414	673
956.97418	678
958.64398	695
960.31342	714
961.98065	686
963.64948	672
965.31799	648
966.98425	654
968.65216	650
970.3197	657
971.98505	630
973.65204	594
975.31866	591
976.98309	583
978.64911	601
980.31287	536
981.97827	600
983.64337	515
985.30621	589
986.9707	577
988.63287	555
990.29675	556
991.96027	559
993.62158	583
995.28448	535
996.94519	565
998.60748	525
1000.2675	544
1001.9292	534
1003.5886	557
1005.2497	507
1006.9085	555
1008.5689	537
1010.2271	488
1011.8869	535
1013.5445	562
1015.2037	552
1016.8607	563
1018.5192	549
1020.1755	576
1021.8316	570
1023.4893	577
1025.1447	553
1026.8016	614
1028.4564	600
1030.111	632
1031.7671	609
1033.4209	623
1035.0764	653
1036.7297	614
1038.3826	678
1040.0372	636
1041.6896	675
1043.3416	764
1044.9952	661
1046.6466	679
1048.2977	627
1049.9485	618
1051.601	635
1053.2511	665
1054.901	674
1056.5524	725
1058.2017	695
1059.8506	778
1061.4993	685
1063.1495	754
1064.7976	747
1066.4453	801
1068.0928	703
1069.7399	760
1071.3885	758
1073.035	720
1074.6813	751
1076.3271	660
1077.9728	653
1079.618	657
1081.2649	632
1082.9095	641
1084.554	628
1086.198	635
1087.8417	634
1089.4851	665
1091.1283	637
1092.7711	604
1094.4137	620
1096.0577	595
1097.6997	564
1099.3413	577
1100.9827	557
1102.6237	577
1104.2644	587
1105.9048	534
1107.5448	540
1109.1847	579
1110.8241	619
1112.4633	609
1114.1022	627
1115.7407	607
1117.379	672
1119.017	641
1120.6547	673
1122.292	728
1123.9291	725
1125.5658	662
1127.2023	731
1128.8365	681
1130.4724	585
1132.1079	629
1133.7432	644
1135.3781	614
1137.0127	626
1138.647	599
1140.281	608
1141.9148	629
1143.5463	621
1145.1794	617
1146.8123	656
1148.4447	623
1150.077	628
1151.7089	665
1153.3386	701
1154.9698	681
1156.601	679
1158.2316	695
1159.8601	761
1161.4902	673
1163.12	663
1164.7495	658
1166.3768	646
1168.0057	662
1169.6343	636
1171.2626	668
1172.8887	641
1174.5164	613
1176.1438	616
1177.769	557
1179.3958	557
1181.0223	512
1182.6466	486
1184.2725	506
1185.8981	473
1187.5215	498
1189.1465	490
1190.7711	458
1192.3937	458
1194.0178	468
1195.6396	457
1197.2632	453
1198.8864	384
1200.5073	476
1202.13	439
1203.7504	489
1205.3723	473
1206.9922	454
1208.6135	447
1210.2328	457
1211.8536	464
1213.4722	455
1215.0924	459
1216.7104	466
1218.3301	494
1219.9475	495
1221.5665	516
1223.1833	508
1224.8018	538
1226.418	535
1228.0358	542
1229.6515	545
1231.2667	554
1232.8837	532
1234.4984	586
1236.1147	568
1237.729	576
1239.3428	550
1240.9583	578
1242.5715	542
1244.1844	596
1245.7991	550
1247.4114	535
1249.0234	559
1250.6371	592
1252.2487	611
1253.8599	595
1255.4725	581
1257.0831	651
1258.6935	600
1260.3054	583
1261.915	636
1263.5245	584
1265.1337	623
1266.7443	597
1268.3528	682
1269.9611	652
1271.569	664
1273.1766	674
1274.7859	643
1276.3929	640
1277.9996	644
1279.6062	647
1281.2123	658
1282.8201	645
1284.4257	671
1286.0309	678
1287.6359	743
1289.2406	724
1290.845	769
1292.4491	774
1294.053	844
1295.6583	864
1297.2616	888
1298.8645	917
1300.4672	995
1302.0695	1028
1303.6715	1047
1305.2733	1010
1306.8748	1002
1308.476	1054
1310.0768	989
1311.6774	1014
1313.2776	905
1314.8777	915
1316.4773	889
1318.0768	833
1319.6759	785
1321.2747	811
1322.8733	785
1324.4714	766
1326.0695	814
1327.6671	778
1329.2644	755
1330.8616	826
1332.4564	764
1334.053	823
1335.6492	818
1337.245	792
1338.8407	787
1340.436	768
1342.031	775
1343.6257	712
1345.2184	763
1346.8125	749
1348.4064	722
1349.9999	735
1351.5933	691
1353.1843	691
1354.7771	676
1356.3695	705
1357.9615	679
1359.5535	691
1361.1431	699
1362.7344	699
1364.3253	683
1365.916	655
1367.5045	691
1369.0946	644
1370.6843	636
1372.2721	638
1373.8612	575
1375.4502	587
1377.037	606
1378.6254	563
1380.2134	557
1381.7993	572
1383.3867	581
1384.974	581
1386.559	565
1388.1456	501
1389.7319	556
1391.3162	554
1392.9019	506
1394.4855	485
1396.0707	491
1397.6537	493
1399.2383	511
1400.8226	504
1402.4048	503
1403.9885	545
1405.5701	487
1407.1532	517
1408.7343	481
1410.3168	513
1411.8972	492
1413.4792	466
1415.0591	517
1416.6405	453
1418.2198	490
1419.8007	512
1421.3794	499
1422.9578	507
1424.5377	495
1426.1156	572
1427.6951	585
1429.2723	648
1430.8494	699
1432.4279	790
1434.0043	845
1435.5823	999
1437.1581	1067
1438.7336	1149
1440.3108	1279
1441.8857	1358
1443.4604	1422
1445.0367	1465
1446.6108	1591
1448.1847	1628
1449.7583	1833
1451.3334	1888
1452.9064	1911
1454.4791	1929
1456.0533	1864
1457.6255	1752
1459.1974	1839
1460.7689	1726
1462.342	1747
1463.913	1729
1465.4838	1607
1467.0542	1511
1468.6243	1461
1470.1941	1377
1471.7655	1258
1473.3348	1179
1474.9038	1101
1476.4725	1104
1478.041	921
1479.6091	847
1481.1788	818
1482.7465	751
1484.3137	666
1485.8807	687
1487.4475	613
1489.0139	598
1490.5801	560
1492.146	542
1493.7115	520
1495.2769	499
1496.8419	490
1498.4066	569
1499.9711	490
1501.5353	461
1503.0991	431
1504.6628	474
1506.2261	466
1507.7892	438
1509.3519	455
1510.9144	473
1512.4766	443
1514.0386	458
1515.6002	443
1517.1615	415
1518.7227	468
1520.2834	436
1521.8439	451
1523.4042	440
1524.9623	411
1526.5219	436
1528.0813	427
1529.6404	429
1531.1992	424
1532.7577	420
1534.316	453
1535.8722	392
1537.4298	414
1538.9873	413
1540.5444	380
1542.1012	369
1543.656	410
1545.2123	379
1546.7683	416
1548.324	428
1549.8777	372
1551.4329	413
1552.9877	389
1554.5424	398
1556.0948	381
1557.6488	400
1559.2026	403
1560.7543	385
1562.3075	395
1563.8605	426
1565.4113	388
1566.9636	403
1568.5157	425
1570.0657	406
1571.6172	429
1573.1685	391
1574.7177	387
1576.2683	443
1577.8169	388
1579.3671	393
1580.9169	392
1582.4647	407
1584.0139	387
1585.5612	393
1587.1099	416
1588.6566	361
1590.2047	384
1591.7509	394
1593.2985	391
1594.844	417
1596.3911	384
1597.936	405
1599.4825	389
1601.027	437
1602.5729	410
1604.1168	393
1605.6622	433
1607.2056	407
1608.7485	437
1610.2931	386
1611.8356	394
1613.3796	373
1614.9215	412
1616.4633	384
1618.0063	422
1619.5475	384
1621.0884	404
1622.6306	380
1624.1709	334
1625.7109	389
1627.2524	389
1628.7919	400
1630.3311	375
1631.8717	367
1633.4104	400
1634.9487	405
1636.4868	394
1638.0264	410
1639.5638	397
1641.1011	388
1642.6381	413
1644.1765	432
1645.7129	408
1647.249	479
1648.7849	350
1650.3206	401
1651.8577	384
1653.3927	386
1654.9274	436
1656.4619	436
1657.9961	384
1659.53	383
1661.0637	423
1662.597	359
1664.132	382
1665.6648	400
1667.1974	440
1668.7296	410
1670.2617	386
1671.7935	377
1673.3248	408
1674.8561	398
1676.387	376
1677.9176	396
1679.448	431
1680.9781	398
1682.5079	431
1684.0375	439
1685.5668	439
1687.0957	436
1688.6245	456
1690.153	403
1691.6812	414
1693.209	393
1694.7367	434
1696.264	431
1697.7911	460
1699.318	431
1700.8427	438
1702.369	467
1703.895	416
1705.4207	422
1706.9462	441
1708.4713	464
1709.9962	416
1711.5192	471
